#Creator: pendulumEventBuffer
#Creation time: Tue Jan  1 01:30:49 2013
#Time	Period	Transit time
#[s]	[s]	[s]
3.315733	2.205402	0.007106
4.418231	2.204570	0.007138
5.520303	2.203709	0.007166
6.621940	2.202857	0.007192
7.723160	2.202030	0.007220
8.823970	2.201204	0.007252
9.924364	2.200381	0.007280
11.024351	2.199568	0.007306
12.123932	2.198764	0.007336
13.223115	2.197970	0.007366
14.321902	2.197180	0.007396
15.420295	2.196407	0.007426
16.518309	2.195650	0.007454
17.615945	2.194896	0.007482
18.713205	2.194150	0.007510
19.810095	2.193417	0.007538
20.906622	2.192697	0.007568
22.002792	2.191981	0.007596
23.098603	2.191268	0.007622
24.194060	2.190567	0.007652
25.289170	2.189878	0.007684
26.383938	2.189199	0.007716
27.478369	2.188529	0.007746
28.572467	2.187860	0.007774
29.666229	2.187194	0.007802
30.759661	2.186535	0.007830
31.852764	2.185886	0.007860
32.945547	2.185256	0.007890
34.038020	2.184629	0.007920
35.130176	2.183995	0.007948
36.222015	2.183370	0.007978
37.313546	2.182757	0.008008
38.404772	2.182152	0.008036
39.495698	2.181547	0.008068
40.586319	2.180945	0.008098
41.676643	2.180366	0.008126
42.766685	2.179789	0.008154
43.856432	2.179218	0.008184
44.945903	2.178658	0.008214
46.035090	2.178103	0.008244
47.124006	2.177554	0.008276
48.212644	2.176993	0.008308
49.300999	2.176451	0.008338
50.389095	2.175912	0.008366
51.476911	2.175373	0.008394
52.564468	2.174855	0.008424
53.651766	2.174330	0.008456
54.738798	2.173812	0.008484
55.825578	2.173304	0.008512
56.912102	2.172796	0.008544
57.998374	2.172296	0.008576
59.084398	2.171805	0.008608
60.170179	2.171318	0.008638
61.255716	2.170838	0.008668
62.341017	2.170358	0.008698
63.426074	2.169887	0.008728
64.510904	2.169417	0.008760
65.595491	2.168941	0.008790
66.679845	2.168473	0.008818
67.763964	2.168018	0.008848
68.847863	2.167584	0.008882
69.931548	2.167132	0.008916
71.014995	2.166672	0.008946
72.098220	2.166234	0.008976
73.181229	2.165803	0.009006
74.264023	2.165373	0.009038
75.346602	2.164949	0.009068
76.428972	2.164532	0.009096
77.511134	2.164118	0.009132
78.593090	2.163702	0.009164
79.674836	2.163284	0.009192
80.756374	2.162882	0.009224
81.837718	2.162486	0.009256
82.918860	2.162086	0.009288
83.999804	2.161693	0.009320
85.080553	2.161304	0.009350
86.161108	2.160915	0.009380
87.241468	2.160526	0.009412
88.321634	2.160149	0.009444
89.401617	2.159772	0.009478
90.481406	2.159399	0.009508
91.561016	2.159026	0.009540
92.640432	2.158640	0.009572
93.719656	2.158260	0.009604
94.798692	2.157895	0.009636
95.877551	2.157549	0.009666
96.956241	2.157203	0.009698
98.034754	2.156859	0.009732
99.113100	2.156518	0.009768
100.191272	2.156171	0.009800
101.269271	2.155827	0.009830
102.347099	2.155492	0.009866
103.424763	2.155168	0.009898
104.502267	2.154842	0.009926
105.579605	2.154510	0.009958
106.656777	2.154188	0.009990
107.733793	2.153873	0.010022
108.810650	2.153556	0.010056
109.887349	2.153239	0.010090
110.963889	2.152914	0.010126
112.040263	2.152591	0.010158
113.116480	2.152280	0.010188
114.192543	2.151975	0.010222
115.268455	2.151676	0.010254
116.344219	2.151375	0.010286
117.419830	2.151073	0.010320
118.495292	2.150781	0.010352
119.570611	2.150491	0.010386
120.645783	2.150198	0.010422
121.720809	2.149908	0.010454
122.795691	2.149619	0.010486
123.870428	2.149343	0.010520
124.945034	2.149073	0.010556
126.019501	2.148793	0.010590
127.093827	2.148513	0.010622
128.168014	2.148236	0.010656
129.242063	2.147962	0.010690
130.315976	2.147694	0.010724
131.389757	2.147432	0.010758
132.463408	2.147170	0.010792
133.536927	2.146906	0.010826
134.610314	2.146648	0.010860
135.683575	2.146395	0.010894
136.756709	2.146140	0.010930
137.829715	2.145884	0.010962
138.902593	2.145632	0.010994
139.975347	2.145386	0.011030
141.047979	2.145137	0.011066
142.120484	2.144887	0.011100
143.192866	2.144643	0.011136
144.265127	2.144403	0.011170
145.337269	2.144162	0.011202
146.409289	2.143921	0.011238
147.481190	2.143685	0.011272
148.552974	2.143453	0.011308
149.624643	2.143218	0.011346
150.696192	2.142982	0.011380
151.767625	2.142747	0.011414
152.838939	2.142515	0.011450
153.910140	2.142296	0.011484
154.981235	2.142079	0.011518
156.052219	2.141859	0.011554
157.123094	2.141641	0.011588
158.193860	2.141422	0.011624
159.264516	2.141204	0.011660
160.335064	2.140987	0.011696
161.405503	2.140769	0.011734
162.475833	2.140556	0.011770
163.546059	2.140346	0.011806
164.616179	2.140135	0.011842
165.686194	2.139926	0.011876
166.756105	2.139722	0.011914
167.825916	2.139520	0.011952
168.895625	2.139315	0.011986
169.965231	2.139110	0.012022
171.034735	2.138912	0.012058
172.104143	2.138715	0.012094
173.173450	2.138515	0.012132
174.242658	2.138318	0.012168
175.311768	2.138132	0.012204
176.380790	2.137945	0.012244
177.449713	2.137752	0.012282
178.518542	2.137566	0.012316
179.587279	2.137371	0.012354
180.655913	2.137178	0.012390
181.724457	2.136990	0.012426
182.792903	2.136804	0.012462
183.861261	2.136638	0.012502
184.929541	2.136468	0.012542
185.997729	2.136283	0.012578
187.065824	2.136097	0.012616
188.133826	2.135923	0.012652
189.201747	2.135760	0.012690
190.269586	2.135591	0.012728
191.337338	2.135415	0.012764
192.405001	2.135237	0.012802
193.472575	2.135059	0.012842
194.540060	2.134887	0.012884
195.607462	2.134719	0.012924
196.674779	2.134548	0.012958
197.742010	2.134379	0.012992
198.809158	2.134216	0.013032
199.876226	2.134057	0.013072
200.943215	2.133896	0.013110
202.010122	2.133733	0.013148
203.076948	2.133571	0.013188
204.143693	2.133414	0.013230
205.210362	2.133257	0.013268
206.276950	2.133096	0.013304
207.343458	2.132933	0.013344
208.409883	2.132776	0.013386
209.476234	2.132626	0.013428
210.542509	2.132470	0.013466
211.608704	2.132321	0.013504
212.674830	2.132176	0.013544
213.740880	2.132033	0.013580
214.806863	2.131889	0.013618
215.872769	2.131736	0.013662
216.938599	2.131590	0.013706
218.004359	2.131451	0.013746
219.070050	2.131305	0.013784
220.135664	2.131156	0.013824
221.201206	2.131014	0.013864
222.266678	2.130869	0.013904
223.332075	2.130720	0.013942
224.397398	2.130575	0.013984
225.462650	2.130437	0.014028
226.527835	2.130307	0.014066
227.592957	2.130173	0.014106
228.658008	2.130031	0.014148
229.722988	2.129897	0.014188
230.787905	2.129761	0.014230
231.852749	2.129622	0.014274
232.917527	2.129492	0.014314
233.982241	2.129362	0.014354
235.046889	2.129232	0.014398
236.111473	2.129102	0.014442
237.175991	2.128989	0.014486
238.240462	2.128873	0.014528
239.304864	2.128741	0.014568
240.369203	2.128612	0.014610
241.433476	2.128484	0.014652
242.497687	2.128354	0.014690
243.561830	2.128219	0.014732
244.625906	2.128093	0.014776
245.689923	2.127970	0.014822
246.753876	2.127839	0.014864
247.817762	2.127711	0.014904
248.881587	2.127597	0.014946
249.945359	2.127487	0.014990
251.009074	2.127368	0.015036
252.072727	2.127250	0.015078
253.136324	2.127134	0.015124
254.199861	2.127011	0.015170
255.263335	2.126893	0.015210
256.326754	2.126784	0.015252
257.390119	2.126671	0.015298
258.453425	2.126557	0.015342
259.516676	2.126444	0.015384
260.579869	2.126327	0.015430
261.643003	2.126207	0.015474
262.706076	2.126096	0.015516
263.769099	2.125987	0.015562
264.832063	2.125872	0.015606
265.894971	2.125757	0.015650
266.957820	2.125646	0.015696
268.020617	2.125541	0.015742
269.083361	2.125439	0.015786
270.146056	2.125338	0.015832
271.208699	2.125236	0.015878
272.271292	2.125141	0.015924
273.333840	2.125036	0.015972
274.396328	2.124923	0.016012
275.458763	2.124820	0.016058
276.521148	2.124722	0.016108
277.583485	2.124627	0.016154
278.645775	2.124531	0.016198
279.708016	2.124438	0.016244
280.770213	2.124346	0.016290
281.832362	2.124249	0.016336
282.894462	2.124147	0.016384
283.956509	2.124043	0.016430
285.018505	2.123934	0.016478
286.080443	2.123851	0.016526
287.142356	2.123752	0.016572
288.204195	2.123647	0.016618
289.266003	2.123573	0.016666
290.327768	2.123451	0.016716
291.389454	2.123339	0.016764
292.451107	2.123262	0.016810
293.512716	2.123179	0.016856
294.574286	2.123090	0.016904
295.635806	2.122997	0.016952
296.697283	2.122919	0.016998
297.758725	2.122835	0.017046
298.820118	2.122736	0.017096
299.881461	2.122667	0.017142
300.942785	2.122577	0.017238
302.004038	2.122475	0.017292
303.065260	2.122400	0.017296
304.126438	2.122315	0.017344
305.187575	2.122231	0.017390
306.248669	2.122148	0.017438
307.309723	2.122063	0.017490
308.370732	2.121973	0.017540
309.431696	2.121890	0.017588
310.492622	2.121812	0.017636
311.553508	2.121719	0.017688
312.614341	2.121625	0.017738
313.675133	2.121550	0.017786
314.735891	2.121472	0.017838
315.796605	2.121383	0.017890
316.857274	2.121292	0.017940
317.917897	2.121214	0.017990
318.978488	2.121144	0.018040
320.039041	2.121064	0.018090
321.099552	2.120978	0.018140
322.160019	2.120899	0.018190
323.220451	2.120822	0.018242
324.280841	2.120749	0.018294
325.341200	2.120680	0.018348
326.401521	2.120587	0.018402
327.461787	2.120504	0.018454
328.522025	2.120441	0.018506
329.582228	2.120360	0.018560
