#Creator: pendulumviewEventBuffer
#Creation time: Fri Mar 15 09:51:11 2024
#Time A	Pos A	Time B	Pos B
#[s]	[au]	[s]	[au]
0.025	634	0.050	636
0.075	627	0.101	625
0.127	613	0.151	609
0.177	592	0.202	583
0.228	564	0.254	554
0.278	531	0.304	519
0.329	496	0.355	482
0.380	460	0.405	445
0.431	425	0.456	407
0.481	394	0.507	375
0.532	366	0.558	347
0.582	344	0.608	325
0.634	328	0.659	312
0.684	320	0.709	306
0.735	317	0.760	308
0.785	325	0.811	318
0.836	338	0.862	337
0.886	357	0.912	362
0.938	383	0.963	394
0.988	412	1.013	427
1.039	444	1.065	462
1.089	479	1.115	500
1.140	514	1.166	536
1.191	547	1.216	568
1.242	576	1.267	595
1.292	600	1.318	615
1.343	617	1.369	628
1.393	626	1.419	633
1.445	628	1.470	632
1.495	622	1.520	621
1.546	608	1.571	603
1.596	587	1.622	579
1.647	560	1.673	549
1.697	529	1.723	516
1.749	495	1.774	478
1.799	461	1.824	442
1.850	427	1.876	405
1.900	397	1.926	374
1.951	369	1.977	348
2.002	347	2.027	327
2.053	332	2.078	314
2.103	324	2.129	308
2.154	322	2.180	311
2.204	328	2.230	322
2.256	341	2.281	341
2.306	360	2.331	366
2.357	384	2.382	395
2.407	413	2.433	430
2.458	445	2.484	467
2.508	480	2.534	503
2.560	514	2.585	538
2.610	547	2.635	569
2.661	573	2.687	596
2.711	599	2.737	616
2.762	615	2.788	627
2.813	625	2.838	632
2.864	626	2.889	629
2.914	620	2.940	617
2.965	605	2.991	600
3.015	585	3.041	575
3.067	559	3.092	545
3.117	527	3.142	511
3.168	494	3.194	475
3.218	459	3.244	438
3.269	426	3.295	404
3.319	396	3.345	373
3.371	369	3.396	346
3.421	348	3.446	327
3.472	333	3.498	315
3.522	325	3.548	311
3.573	324	3.599	315
3.624	331	3.649	326
3.675	344	3.700	345
3.725	363	3.751	372
3.776	387	3.802	401
3.826	417	3.852	435
3.878	449	3.903	471
3.928	481	3.953	507
3.979	515	4.005	541
4.029	547	4.055	572
4.080	575	4.106	596
4.130	598	4.156	614
4.182	613	4.207	624
4.232	622	4.257	629
4.283	623	4.309	625
4.333	616	4.359	613
4.384	602	4.410	595
4.435	581	4.460	570
4.486	557	4.511	540
4.536	524	4.562	506
4.587	491	4.613	471
4.637	456	4.663	435
4.689	425	4.714	402
4.739	396	4.764	372
4.790	369	4.816	347
4.840	350	4.866	329
4.891	335	4.917	319
4.941	327	4.967	314
4.993	327	5.018	319
5.043	333	5.068	331
5.094	346	5.120	351
5.144	365	5.170	375
5.195	391	5.221	406
5.246	418	5.271	439
5.297	451	5.322	475
5.347	482	5.373	510
5.398	516	5.424	542
5.448	547	5.474	572
5.500	574	5.525	596
5.550	597	5.575	614
5.601	612	5.627	623
5.651	620	5.677	627
5.702	621	5.728	621
5.752	614	5.778	609
5.804	600	5.829	591
5.854	579	5.879	565
5.905	553	5.931	536
5.955	522	5.981	502
6.006	491	6.032	467
6.057	456	6.082	433
6.108	425	6.133	399
6.158	395	6.184	371
6.209	370	6.235	347
6.259	350	6.285	330
6.311	337	6.336	320
6.361	329	6.386	318
6.412	328	6.438	322
6.462	335	6.488	336
6.513	348	6.539	355
6.563	368	6.589	381
6.615	392	6.640	411
6.665	420	6.690	444
6.716	452	6.742	479
6.766	484	6.792	513
6.817	517	6.843	545
6.869	546	6.893	573
6.919	574	6.944	596
6.970	596	6.995	612
7.020	611	7.046	620
7.071	618	7.096	623
7.122	619	7.147	618
7.173	612	7.197	606
7.223	597	7.249	586
7.274	577	7.299	561
7.324	550	7.350	531
7.376	520	7.400	498
7.426	488	7.451	464
7.477	455	7.501	430
7.527	423	7.553	398
7.578	396	7.603	371
7.628	371	7.654	348
7.680	350	7.704	332
7.730	338	7.755	323
7.781	330	7.806	321
7.831	330	7.857	327
7.882	337	7.907	340
7.933	350	7.958	360
7.984	369	8.008	386
8.034	394	8.060	415
8.085	422	8.110	448
8.135	453	8.161	482
8.187	485	8.211	515
8.237	518	8.262	547
8.288	548	8.312	574
8.338	575	8.364	595
8.389	595	8.414	611
8.439	609	8.465	618
8.491	617	8.515	620
8.541	617	8.566	613
8.592	610	8.617	602
8.642	596	8.668	581
8.693	575	8.718	556
8.744	548	8.769	526
8.795	518	8.819	494
8.845	486	8.871	461
8.896	454	8.921	428
8.946	423	8.972	397
8.998	395	9.022	371
9.048	369	9.073	349
9.099	350	9.123	334
9.149	337	9.175	325
9.200	331	9.225	325
9.250	332	9.276	331
9.302	338	9.326	344
9.352	352	9.377	365
9.403	371	9.428	392
9.453	396	9.479	421
9.504	424	9.529	453
9.555	455	9.580	485
9.606	488	9.630	518
9.656	520	9.682	547
9.707	550	9.732	573
9.757	575	9.783	595
9.809	596	9.833	608
9.859	610	9.884	616
9.910	616	9.934	617
9.960	615	9.986	610
10.011	608	10.037	596
10.061	593	10.087	577
10.113	572	10.138	551
10.163	547	10.188	523
10.214	516	10.240	490
10.264	484	10.290	459
10.315	451	10.341	426
10.366	421	10.391	396
10.417	393	10.442	371
10.467	370	10.493	351
10.518	351	10.544	336
10.568	339	10.594	329
10.620	334	10.645	327
10.670	333	10.695	335
10.721	340	10.747	349
10.771	355	10.797	369
10.822	374	10.848	395
10.872	398	10.898	424
10.924	427	10.949	456
10.974	458	10.999	486
11.025	490	11.051	519
11.075	522	11.101	548
11.126	551	11.152	574
11.177	576	11.202	593
11.228	596	11.253	606
11.278	609	11.304	613
11.329	615	11.355	613
11.379	615	11.405	605
11.431	606	11.456	592
11.481	591	11.506	573
11.532	569	11.558	548
11.582	544	11.608	519
11.633	513	11.659	488
11.683	481	11.709	456
11.735	449	11.760	424
11.785	419	11.810	396
11.836	392	11.862	371
11.886	368	11.912	352
11.937	351	11.963	338
11.988	339	12.013	332
12.039	333	12.064	332
12.089	334	12.115	340
12.140	342	12.166	354
12.190	357	12.216	374
12.242	378	12.267	399
12.292	402	12.317	427
12.343	430	12.369	458
12.393	461	12.419	489
12.444	492	12.470	520
12.494	524	12.520	549
12.546	553	12.571	574
12.596	577	12.621	591
12.647	596	12.673	604
12.697	608	12.723	609
12.748	615	12.774	610
12.799	613	12.824	602
12.850	605	12.875	588
12.900	588	12.926	568
12.951	568	12.977	543
13.001	540	13.027	516
13.053	510	13.078	485
13.103	479	13.128	453
13.154	447	13.180	423
13.204	417	13.230	396
13.255	390	13.281	372
13.306	368	13.331	354
13.357	350	13.382	341
13.407	339	13.432	335
13.458	334	13.484	336
13.508	335	13.534	344
13.559	344	13.585	358
13.610	359	13.635	378
13.661	381	13.686	403
13.711	405	13.737	431
13.762	433	13.788	461
13.812	463	13.838	492
13.864	495	13.889	522
13.914	526	13.939	549
13.965	554	13.991	572
14.015	579	14.041	590
14.066	597	14.092	601
14.117	609	14.142	607
14.168	615	14.193	606
14.218	612	14.243	599
14.269	602	14.295	585
14.319	586	14.345	565
14.370	564	14.396	541
14.421	538	14.446	513
14.472	507	14.497	483
14.523	476	14.548	452
14.573	446	14.599	423
14.624	415	14.649	396
14.675	389	14.700	374
14.726	366	14.750	356
14.776	350	14.802	344
14.827	339	14.852	338
14.877	335	14.903	339
14.929	338	14.953	347
14.979	346	15.004	361
15.030	361	15.054	382
15.080	383	15.106	405
15.131	408	15.156	434
15.181	437	15.207	464
15.233	467	15.257	494
15.283	497	15.308	523
15.334	529	15.359	549
15.384	556	15.410	571
15.435	580	15.460	588
15.486	597	15.511	599
15.537	609	15.561	604
15.587	614	15.613	602
15.638	611	15.663	593
15.688	600	15.714	581
15.740	584	15.764	562
15.790	561	15.815	537
15.841	534	15.866	510
15.891	504	15.917	481
15.942	472	15.967	451
15.992	442	16.018	422
16.044	413	16.068	394
16.094	387	16.119	374
16.145	366	16.170	357
16.195	350	16.221	346
16.246	340	16.271	341
16.297	337	16.322	343
16.348	339	16.372	350
16.398	349	16.424	366
16.449	364	16.474	386
16.499	387	16.525	409
16.551	411	16.575	436
16.601	440	16.626	465
16.652	470	16.677	495
16.702	501	16.728	524
16.753	531	16.778	548
16.803	558	16.829	570
16.855	582	16.879	586
16.905	598	16.930	597
16.956	608	16.981	602
17.006	611	17.032	600
17.057	609	17.082	592
17.108	598	17.133	579
17.159	581	17.183	559
17.209	558	17.235	536
17.260	531	17.285	507
17.310	501	17.336	479
17.362	469	17.386	450
17.412	440	17.437	422
17.463	411	17.488	396
17.513	385	17.539	376
17.564	365	17.590	359
17.614	350	17.640	349
17.666	341	17.691	345
17.716	337	17.741	346
17.767	341	17.793	355
17.817	351	17.843	369
17.868	368	17.894	388
17.919	389	17.944	412
17.970	414	17.995	439
18.020	443	18.046	468
18.071	474	18.097	496
18.121	504	18.147	524
18.173	534	18.198	548
18.223	560	18.248	569
18.274	583	18.300	585
18.324	598	18.350	594
18.375	607	18.401	600
18.426	610	18.451	597
18.477	606	18.502	589
18.527	595	18.552	575
18.578	577	18.604	556
18.628	554	18.654	532
18.679	527	18.705	506
18.730	497	18.755	478
18.781	466	18.806	449
18.831	436	18.857	422
18.882	408	18.908	397
18.932	384	18.958	377
18.984	365	19.009	361
19.034	350	19.059	351
19.085	341	19.111	347
19.135	339	19.161	349
19.186	343	19.212	358
19.237	354	19.262	372
19.288	370	19.313	392
19.338	392	19.363	416
19.389	418	19.415	441
19.439	447	19.465	469
19.490	477	19.516	497
19.541	507	19.566	523
19.592	536	19.617	546
19.642	562	19.668	568
19.693	582	19.719	583
19.743	599	19.769	593
19.795	607	19.820	597
19.845	610	19.870	594
19.896	603	19.922	586
19.946	592	19.972	571
19.997	573	20.023	553
20.048	550	20.073	530
20.099	523	20.124	504
20.149	493	20.174	476
20.200	462	20.226	448
20.250	433	20.276	420
20.301	406	20.327	398
20.352	383	20.377	377
20.403	363	20.428	363
20.453	350	20.479	353
20.504	342	20.530	349
20.554	340	20.580	352
20.606	345	20.631	361
20.656	358	20.681	375
20.707	374	20.733	394
20.757	396	20.783	417
20.808	421	20.834	443
20.859	451	20.884	470
20.910	481	20.935	498
20.960	511	20.986	525
21.011	539	21.037	548
21.061	564	21.087	569
21.112	584	21.138	582
21.163	598	21.188	591
21.214	606	21.239	595
21.265	607	21.290	593
21.315	602	21.341	583
21.366	588	21.391	570
21.417	569	21.442	551
21.468	546	21.492	528
21.518	519	21.544	503
21.569	489	21.594	476
21.619	460	21.645	448
21.671	430	21.695	421
21.721	404	21.746	398
21.772	381	21.797	380
21.822	363	21.848	365
21.873	350	21.898	356
21.923	343	21.949	351
21.975	343	21.999	354
22.025	349	22.050	363
22.076	361	22.101	377
22.126	378	22.152	396
22.177	400	22.202	419
22.228	427	22.253	445
22.279	455	22.303	471
22.329	484	22.355	499
22.380	514	22.405	524
22.430	542	22.456	547
22.482	566	22.506	566
22.532	584	22.557	580
22.583	597	22.608	589
22.633	605	22.659	592
22.684	605	22.709	591
22.734	597	22.760	581
22.786	584	22.810	567
22.836	566	22.861	549
22.887	542	22.912	527
22.937	515	22.963	501
22.988	486	23.013	474
23.039	456	23.064	447
23.090	429	23.114	421
23.140	402	23.166	399
23.191	380	23.216	379
23.241	363	23.267	365
23.293	351	23.317	356
23.343	345	23.368	354
23.394	345	23.419	356
23.444	352	23.470	365
23.495	365	23.520	379
23.546	382	23.571	398
23.597	405	23.621	422
23.647	431	23.672	446
23.698	458	23.723	473
23.748	488	23.774	500
23.799	517	23.824	525
23.850	544	23.875	547
23.901	566	23.925	566
23.951	584	23.977	581
24.002	597	24.027	590
24.052	603	24.078	591
24.104	602	24.128	588
24.154	595	24.179	580
24.205	581	24.230	566
24.255	562	24.281	546
24.306	538	24.332	525
24.357	510	24.382	500
24.408	482	24.433	474
24.458	453	24.483	447
24.509	425	24.535	421
24.559	400	24.585	399
24.610	380	24.636	381
24.661	363	24.686	366
24.712	352	24.737	358
24.762	347	24.788	356
24.813	348	24.839	358
24.863	356	24.889	367
24.915	368	24.940	382
24.965	388	24.990	400
25.016	409	25.042	423
25.066	434	25.092	448
25.117	462	25.143	475
25.168	491	25.193	501
25.219	520	25.244	526
25.269	545	25.294	548
25.320	567	25.346	566
25.370	584	25.396	580
25.421	595	25.447	588
25.472	601	25.497	590
25.523	599	25.548	586
25.573	591	25.599	578
25.624	577	25.650	564
25.674	558	25.700	545
25.726	534	25.751	523
25.776	507	25.801	498
25.827	479	25.853	472
25.877	450	25.903	446
25.928	423	25.954	421
25.979	400	26.004	399
26.030	379	26.055	381
26.080	365	26.106	368
26.131	353	26.157	359
26.181	350	26.207	357
26.232	352	26.258	359
26.283	359	26.308	368
26.334	372	26.359	383
26.384	390	26.410	402
26.435	413	26.461	425
26.485	439	26.511	450
26.537	466	26.562	476
26.587	495	26.612	502
26.638	521	26.664	526
26.688	547	26.714	548
26.739	567	26.765	566
26.790	583	26.815	579
26.841	593	26.866	587
26.891	599	26.917	589
26.942	596	26.968	586
26.992	587	27.018	577
27.043	573	27.069	563
27.094	553	27.119	544
27.145	530	27.170	522
27.195	503	27.221	497
27.246	475	27.272	471
27.296	448	27.322	445
27.348	422	27.373	421
27.398	399	27.423	399
27.449	380	27.475	381
27.499	365	27.525	368
27.550	355	27.576	360
27.601	352	27.626	357
27.652	354	27.677	361
27.702	363	27.728	372
27.753	376	27.779	386
27.803	395	27.829	405
27.854	417	27.880	428
27.905	442	27.930	451
27.956	469	27.981	477
28.006	496	28.032	503
28.057	523	28.083	528
28.107	547	28.133	549
28.159	567	28.184	566
28.209	583	28.234	579
28.260	592	28.286	587
28.310	595	28.336	589
28.361	593	28.387	585
28.412	584	28.437	576
28.463	569	28.488	561
28.513	549	28.539	542
28.564	526	28.590	519
28.614	500	28.640	496
28.666	472	28.691	470
28.716	446	28.741	443
28.767	421	28.792	420
28.817	398	28.843	399
28.868	380	28.894	381
28.918	367	28.944	368
28.970	358	28.995	361
29.020	355	29.045	359
29.071	357	29.097	363
29.121	367	29.147	373
29.172	381	29.198	387
29.223	398	29.248	406
29.274	420	29.299	430
29.324	446	29.350	453
29.375	471	29.401	478
29.425	498	29.451	505
29.477	524	29.502	529
29.527	547	29.552	550
29.578	566	29.603	566
29.628	582	29.654	579
29.679	590	29.705	586
29.729	592	29.755	588
29.781	589	29.806	584
29.831	581	29.856	574
29.882	565	29.908	559
29.932	547	29.958	541
29.983	522	30.009	518
30.034	497	30.059	493
30.085	470	30.110	467
30.135	444	30.161	442
30.186	420	30.212	418
30.236	398	30.262	398
30.288	381	30.313	381
30.338	368	30.363	369
30.389	360	30.414	362
30.439	357	30.465	360
30.490	361	30.516	365
30.540	370	30.566	374
30.592	384	30.617	389
30.642	403	30.667	408
30.693	423	30.719	431
30.743	448	30.769	455
30.794	473	30.820	481
30.845	500	30.870	507
30.896	525	30.921	530
30.946	547	30.972	551
30.997	565	31.023	566
31.047	579	31.073	579
31.099	587	31.124	586
31.149	590	31.174	587
31.200	586	31.226	583
31.250	576	31.276	573
31.301	561	31.327	557
31.351	541	31.377	539
31.403	519	31.428	516
31.453	493	31.478	491
31.504	468	31.530	466
31.554	442	31.580	441
31.605	419	31.631	417
31.656	399	31.681	397
31.707	381	31.732	379
31.757	371	31.783	368
31.808	362	31.834	362
31.858	361	31.884	360
31.910	364	31.935	366
31.960	375	31.985	376
32.011	387	32.037	391
32.061	406	32.087	411
32.112	428	32.138	434
32.162	451	32.188	458
32.214	476	32.239	483
32.264	502	32.289	508
32.315	525	32.341	532
32.365	547	32.391	551
32.416	565	32.442	569
32.467	578	32.492	579
32.518	585	32.543	587
32.568	587	32.594	586
32.619	583	32.645	582
32.669	572	32.695	571
32.721	557	32.746	555
32.771	538	32.796	536
32.822	516	32.848	514
32.872	492	32.898	489
32.923	465	32.949	464
32.973	441	32.999	439
33.025	418	33.050	416
33.075	399	33.100	396
33.126	383	33.152	380
33.176	371	33.202	369
33.227	365	33.253	363
33.278	364	33.303	362
33.329	368	33.354	368
33.379	377	33.405	378
33.430	391	33.456	393
33.480	408	33.506	413
33.532	430	33.557	436
33.582	453	33.607	461
33.633	477	33.659	486
33.683	503	33.709	510
33.734	527	33.760	533
33.784	547	33.810	552
33.836	563	33.861	568
33.887	576	33.911	579
33.937	582	33.963	585
33.988	584	34.013	584
34.038	579	34.064	579
34.090	569	34.114	569
34.140	554	34.165	553
34.191	536	34.216	534
34.241	513	34.267	511
34.292	489	34.317	487
34.343	465	34.368	462
34.394	440	34.418	437
34.444	418	34.470	415
34.495	399	34.520	395
34.545	384	34.571	379
34.597	375	34.621	368
34.647	367	34.672	364
34.698	366	34.722	363
34.748	371	34.774	369
34.799	380	34.824	381
34.849	394	34.875	395
34.901	412	34.925	416
34.951	433	34.976	439
35.002	456	35.027	464
35.052	479	35.078	489
35.103	504	35.128	513
35.154	526	35.179	535
35.205	546	35.229	554
35.255	561	35.281	570
35.306	573	35.331	579
35.356	580	35.382	584
35.408	581	35.432	584
35.458	576	35.483	578
35.509	566	35.533	567
35.559	551	35.585	552
35.610	532	35.635	532
35.660	511	35.686	509
35.712	487	35.736	484
35.762	463	35.787	459
35.813	439	35.838	435
35.863	418	35.889	413
35.914	400	35.939	394
35.965	386	35.990	380
36.016	375	36.040	369
36.066	370	36.092	364
36.117	369	36.142	365
36.167	374	36.193	371
36.219	383	36.243	383
36.269	397	36.294	399
36.320	414	36.344	419
36.370	435	36.396	442
36.421	458	36.446	467
36.471	482	36.497	492
36.523	505	36.547	515
36.573	526	36.598	537
36.624	546	36.649	555
36.674	560	36.700	570
36.725	572	36.750	580
36.776	577	36.801	583
36.827	577	36.852	583
36.877	573	36.903	576
36.928	563	36.954	564
36.978	549	37.004	548
37.030	530	37.055	528
37.080	509	37.105	506
37.131	486	37.157	481
37.181	462	37.207	456
37.232	440	37.258	433
37.282	420	37.308	411
37.334	401	37.359	393
37.384	386	37.409	379
37.435	379	37.461	369
37.485	372	37.511	365
37.536	372	37.562	367
37.587	377	37.612	374
37.638	386	37.663	385
37.688	399	37.714	403
37.739	417	37.765	423
37.789	437	37.815	445
37.841	460	37.866	471
37.891	482	37.916	494
37.942	506	37.968	518
37.992	527	38.018	539
38.043	545	38.069	556
38.093	560	38.119	571
38.145	570	38.170	579
38.195	575	38.220	582
38.246	574	38.272	581
38.296	571	38.322	574
38.347	560	38.373	562
38.398	546	38.423	545
38.449	528	38.474	526
38.499	506	38.525	503
38.550	484	38.576	478
38.600	461	38.626	454
38.652	439	38.677	430
38.702	419	38.727	410
38.753	402	38.779	392
38.803	389	38.829	379
38.854	379	38.880	370
38.904	374	38.930	366
38.956	373	38.981	370
39.006	379	39.031	376
39.057	388	39.083	389
39.107	402	39.133	406
39.158	419	39.184	426
39.209	439	39.234	449
39.260	461	39.285	473
39.310	484	39.336	496
39.361	506	39.387	520
39.411	527	39.437	541
39.463	544	39.488	557
39.513	559	39.538	571
39.564	569	39.590	579
39.614	574	39.640	581
39.665	574	39.691	579
39.715	568	39.741	572
39.767	559	39.792	559
39.817	544	39.842	543
39.868	526	39.894	522
39.918	505	39.944	500
39.969	483	39.995	475
40.020	461	40.045	451
40.071	439	40.096	428
40.122	420	40.147	409
40.172	403	40.198	389
40.223	390	40.248	379
40.274	380	40.299	370
40.325	376	40.349	368
40.375	376	40.401	371
40.426	381	40.451	379
40.476	392	40.502	392
40.528	405	40.552	409
40.578	421	40.603	429
40.629	442	40.653	452
40.679	463	40.705	476
40.730	484	40.755	500
40.780	506	40.806	522
40.832	527	40.856	542
40.882	544	40.907	558
40.933	557	40.958	571
40.983	567	41.009	578
41.034	572	41.059	580
41.085	572	41.110	577
41.136	567	41.160	570
41.186	557	41.212	555
41.237	541	41.262	539
41.287	524	41.313	518
41.339	504	41.363	496
41.389	482	41.414	471
41.440	460	41.464	448
41.490	439	41.516	426
41.541	420	41.566	407
41.591	404	41.617	391
41.643	391	41.667	379
41.693	381	41.718	371
41.744	378	41.769	369
41.794	378	41.820	373
41.845	383	41.870	382
41.896	392	41.921	395
41.947	407	41.971	412
41.997	423	42.023	433
42.048	443	42.073	456
42.098	464	42.124	479
42.150	485	42.174	502
42.200	507	42.225	523
42.251	527	42.275	542
42.301	543	42.327	558
42.352	557	42.377	571
42.402	566	42.428	576
42.454	571	42.478	577
42.504	570	42.529	574
42.555	565	42.580	566
42.605	555	42.631	552
42.656	542	42.681	536
42.707	523	42.732	515
42.758	501	42.782	493
42.808	482	42.834	470
42.859	459	42.884	447
42.909	439	42.935	425
42.961	420	42.985	406
43.011	404	43.036	390
43.062	392	43.086	379
43.112	383	43.138	372
43.163	379	43.189	372
43.213	380	43.239	377
43.265	385	43.290	385
43.315	395	43.340	399
43.366	408	43.392	416
43.416	425	43.442	437
43.467	445	43.493	459
43.518	464	43.543	482
43.569	487	43.594	504
43.619	507	43.645	526
43.670	527	43.696	544
43.720	543	43.746	558
43.772	556	43.797	570
43.822	565	43.847	575
43.873	569	43.899	575
43.923	569	43.949	571
43.974	563	44.000	562
44.024	553	44.050	549
44.076	538	44.101	532
44.126	520	44.151	512
44.177	501	44.203	490
44.227	479	44.253	467
44.278	459	44.304	445
44.329	438	44.354	424
44.380	420	44.405	405
44.430	404	44.456	390
44.481	393	44.507	381
44.531	384	44.557	376
44.583	380	44.608	374
44.633	381	44.658	379
44.684	386	44.710	389
44.734	396	44.760	402
44.785	410	44.811	420
44.835	426	44.861	440
44.887	446	44.912	462
44.937	467	44.962	484
44.988	488	45.014	507
45.038	509	45.064	527
45.089	527	45.115	544
45.140	543	45.165	559
45.191	556	45.216	568
45.241	564	45.267	573
45.292	568	45.318	573
45.342	568	45.368	568
45.394	561	45.419	560
45.444	552	45.469	546
45.495	537	45.521	528
45.545	520	45.571	509
45.596	500	45.622	487
45.646	478	45.672	465
45.698	458	45.723	443
45.748	437	45.773	423
45.799	420	45.825	406
45.849	405	45.875	391
45.900	392	45.926	382
45.951	385	45.976	378
46.002	382	46.027	377
46.052	383	46.078	383
46.103	388	46.129	392
46.153	398	46.179	406
46.205	412	46.230	424
46.255	428	46.280	442
46.306	447	46.332	465
46.356	467	46.382	486
46.407	489	46.433	508
46.458	509	46.483	528
46.509	528	46.534	544
46.559	543	46.584	558
46.610	556	46.636	567
46.660	564	46.686	572
