#Creator: pendulumviewEventBuffer
#Creation time: Fri Mar 15 09:51:11 2024
#Time A	Pos A	Time B	Pos B
#[s]	[au]	[s]	[au]
0.025	712	0.050	338
0.076	706	0.101	334
0.126	694	0.152	342
0.177	668	0.202	361
0.228	629	0.253	391
0.279	585	0.303	430
0.329	535	0.355	476
0.380	481	0.405	527
0.430	428	0.456	578
0.482	377	0.506	627
0.532	332	0.557	674
0.583	295	0.608	713
0.633	267	0.659	746
0.684	252	0.710	767
0.734	249	0.760	776
0.786	260	0.811	773
0.836	278	0.861	761
0.887	311	0.913	738
0.937	353	0.963	705
0.988	399	1.014	665
1.039	452	1.064	619
1.090	507	1.115	570
1.140	560	1.166	519
1.191	608	1.217	471
1.241	651	1.267	427
1.293	684	1.318	390
1.343	705	1.368	364
1.394	716	1.420	347
1.444	711	1.470	344
1.495	697	1.521	351
1.545	670	1.571	369
1.597	630	1.622	398
1.647	587	1.672	438
1.698	535	1.724	481
1.748	481	1.774	529
1.799	426	1.825	579
1.850	375	1.875	626
1.901	329	1.926	670
1.951	292	1.977	708
2.002	264	2.028	738
2.052	248	2.078	759
2.104	247	2.129	766
2.154	256	2.179	764
2.205	276	2.231	752
2.255	309	2.281	730
2.306	350	2.332	698
2.356	398	2.382	659
2.408	452	2.433	615
2.458	507	2.483	566
2.509	560	2.535	518
2.559	610	2.585	471
2.610	653	2.636	431
2.661	688	2.686	395
2.712	710	2.737	371
2.762	718	2.788	356
2.813	716	2.839	353
2.863	699	2.889	361
2.915	673	2.940	379
2.965	635	2.990	408
3.016	588	3.042	444
3.066	536	3.092	488
3.117	482	3.143	535
3.168	427	3.193	581
3.219	374	3.244	626
3.269	328	3.294	669
3.320	290	3.346	704
3.370	262	3.396	733
3.421	244	3.447	751
3.472	244	3.497	758
3.523	253	3.548	754
3.574	274	3.599	742
3.624	306	3.650	720
3.675	347	3.700	689
3.726	396	3.751	650
3.777	450	3.801	607
3.827	506	3.853	563
3.878	560	3.903	517
3.928	611	3.954	472
3.980	654	4.004	431
4.030	689	4.055	400
4.081	712	4.105	376
4.131	723	4.157	364
4.182	719	4.207	363
4.232	704	4.258	370
4.284	676	4.308	389
4.334	638	4.359	418
4.385	591	4.410	454
4.435	539	4.461	494
4.486	483	4.511	539
4.537	428	4.562	584
4.588	375	4.612	628
4.638	328	4.664	668
4.689	289	4.714	701
4.739	260	4.765	728
4.791	243	4.815	744
4.841	241	4.866	749
4.892	251	4.916	746
4.942	270	4.968	732
4.993	302	5.018	710
5.043	344	5.069	680
5.095	393	5.119	642
5.145	447	5.170	600
5.196	504	5.221	556
5.246	559	5.272	512
5.297	610	5.322	469
5.348	654	5.373	433
5.399	689	5.423	403
5.449	713	5.475	381
5.500	724	5.525	371
5.550	721	5.576	370
5.602	706	5.626	379
5.652	679	5.677	398
5.703	640	5.728	427
5.753	595	5.779	463
5.804	542	5.829	504
5.854	486	5.880	545
5.906	431	5.930	589
5.956	377	5.981	631
6.007	330	6.032	668
6.057	291	6.083	700
6.108	261	6.133	724
6.159	242	6.184	738
6.210	239	6.234	742
6.260	250	6.286	737
6.311	269	6.336	724
6.361	300	6.387	700
6.413	341	6.437	670
6.463	391	6.488	633
6.514	444	6.539	592
6.564	500	6.590	549
6.615	556	6.641	507
6.665	607	6.691	467
6.717	652	6.742	433
6.767	688	6.792	404
6.818	712	6.844	385
6.868	722	6.894	377
6.919	720	6.945	377
6.970	707	6.995	387
7.021	681	7.046	408
7.071	643	7.097	437
7.122	598	7.148	472
7.172	546	7.198	513
7.224	490	7.249	553
7.274	434	7.299	595
7.325	381	7.351	636
7.375	333	7.401	671
7.426	292	7.452	700
7.476	262	7.502	723
7.528	243	7.553	734
7.578	239	7.603	736
7.629	247	7.655	730
7.679	267	7.705	715
7.730	298	7.756	691
7.781	338	7.806	661
7.832	387	7.857	624
7.882	440	7.908	584
7.933	497	7.959	542
7.983	552	8.009	501
8.035	604	8.060	463
8.085	649	8.110	430
8.136	685	8.162	403
8.186	711	8.212	387
8.237	723	8.263	381
8.288	721	8.313	383
8.339	707	8.364	393
8.389	683	8.414	415
8.440	645	8.466	446
8.490	601	8.516	480
8.541	549	8.567	519
8.592	494	8.617	560
8.643	438	8.668	602
8.693	385	8.719	640
8.744	337	8.770	674
8.794	296	8.820	702
8.846	265	8.871	721
8.896	247	8.921	731
8.947	242	8.973	732
8.997	249	9.023	724
9.048	266	9.074	707
9.099	297	9.124	683
9.150	336	9.175	651
9.200	383	9.225	613
9.251	437	9.277	575
9.301	493	9.327	534
9.352	547	9.378	494
9.403	600	9.428	457
9.454	645	9.479	426
9.505	681	9.530	402
9.555	707	9.581	388
9.606	720	9.631	383
9.657	719	9.682	387
9.708	707	9.732	401
9.758	683	9.784	424
9.809	647	9.834	454
9.859	603	9.885	488
9.911	552	9.935	528
9.961	498	9.986	569
10.012	443	10.036	609
10.062	389	10.088	646
10.113	341	10.138	678
10.163	301	10.189	704
10.215	270	10.239	722
10.265	249	10.290	729
10.316	245	10.341	729
10.366	249	10.392	719
10.417	267	10.442	700
10.468	296	10.493	675
10.519	334	10.543	642
10.569	381	10.595	606
10.620	433	10.645	566
10.670	488	10.696	525
10.722	543	10.746	487
10.772	594	10.797	451
10.823	640	10.848	422
10.873	677	10.899	400
10.924	704	10.949	388
10.974	716	11.000	385
11.026	717	11.050	390
11.076	705	11.101	406
11.127	683	11.152	430
11.177	649	11.203	462
11.228	605	11.253	498
11.279	555	11.304	538
11.330	501	11.354	578
11.380	447	11.406	615
11.431	394	11.456	653
11.481	346	11.507	683
11.533	306	11.557	707
11.583	275	11.608	723
11.634	254	11.659	729
11.684	247	11.710	727
11.735	253	11.760	716
11.785	269	11.811	697
11.837	297	11.861	667
11.887	334	11.912	634
11.938	379	11.963	596
11.988	431	12.014	556
12.039	485	12.064	517
12.090	538	12.115	479
12.141	588	12.165	445
12.191	633	12.217	416
12.242	671	12.267	396
12.292	698	12.318	386
12.344	712	12.368	384
12.394	712	12.419	392
12.445	701	12.470	409
12.495	680	12.521	434
12.546	647	12.572	467
12.596	605	12.622	502
12.648	557	12.673	544
12.698	505	12.723	585
12.749	451	12.775	623
12.799	399	12.825	659
12.850	351	12.876	688
12.901	313	12.926	711
12.952	281	12.977	725
13.002	260	13.028	729
13.053	253	13.079	726
13.103	257	13.129	713
13.155	273	13.180	691
13.205	299	13.230	663
13.256	334	13.282	629
13.306	379	13.332	589
13.357	428	13.383	548
13.408	481	13.433	509
13.459	534	13.484	471
13.509	583	13.534	438
13.560	628	13.586	410
13.610	664	13.636	391
13.661	691	13.687	383
13.712	704	13.737	383
13.763	705	13.788	392
13.813	698	13.839	412
13.864	677	13.890	438
13.914	645	13.940	472
13.966	605	13.991	510
14.016	557	14.041	551
14.067	507	14.093	591
14.117	454	14.143	630
14.168	404	14.194	664
14.219	357	14.244	694
14.270	319	14.295	716
14.320	287	14.345	728
14.371	265	14.397	731
14.421	259	14.447	726
14.472	263	14.498	711
14.523	277	14.548	688
14.574	302	14.599	659
14.624	337	14.650	622
14.675	379	14.701	585
14.725	428	14.751	543
14.777	478	14.802	501
14.827	530	14.852	464
14.878	578	14.904	431
14.928	621	14.954	404
14.979	658	15.005	387
15.030	684	15.055	379
15.081	698	15.106	381
15.131	701	15.156	391
15.182	692	15.208	412
15.232	672	15.258	440
15.283	641	15.309	476
15.334	603	15.359	515
15.385	557	15.410	556
15.435	508	15.461	597
15.486	458	15.512	636
15.536	408	15.562	671
15.588	364	15.613	699
15.638	324	15.663	720
15.689	294	15.715	731
15.739	273	15.765	734
15.790	266	15.816	727
15.841	270	15.866	711
15.892	282	15.917	686
15.942	307	15.968	656
15.993	341	16.019	620
16.043	381	16.069	579
16.094	427	16.120	537
16.145	476	16.170	495
16.196	527	16.221	457
16.247	572	16.272	424
16.297	615	16.323	399
16.348	650	16.373	382
16.399	677	16.424	375
16.450	690	16.474	378
16.500	693	16.526	390
16.551	684	16.576	412
16.601	666	16.627	441
16.653	637	16.677	477
16.703	599	16.728	517
16.754	556	16.779	559
16.804	508	16.830	602
16.855	459	16.880	641
16.905	412	16.931	676
16.957	367	16.981	704
17.007	331	17.032	725
17.058	302	17.083	735
17.108	281	17.134	736
17.159	274	17.184	730
17.210	277	17.235	712
17.261	289	17.285	686
17.311	314	17.337	655
17.362	345	17.387	617
17.412	382	17.438	575
17.464	429	17.488	532
17.514	477	17.539	491
17.565	525	17.590	452
17.615	569	17.641	420
17.666	610	17.691	393
17.716	645	17.742	377
17.768	668	17.792	372
17.818	682	17.843	374
17.869	684	17.894	387
17.919	677	17.945	412
17.970	659	17.995	441
18.021	631	18.046	479
18.072	595	18.096	520
18.122	552	18.148	561
18.173	507	18.198	605
18.223	460	18.249	645
18.275	414	18.299	680
18.325	373	18.350	708
18.376	335	18.401	729
18.426	307	18.452	739
18.477	289	18.502	739
18.528	282	18.553	731
18.579	285	18.603	712
18.629	297	18.654	687
18.680	320	18.705	655
18.730	351	18.756	616
18.781	389	18.806	573
18.832	432	18.857	529
18.883	478	18.907	487
18.933	523	18.959	448
18.984	567	19.009	414
19.034	606	19.060	388
19.086	638	19.110	373
19.136	661	19.161	367
19.187	674	19.212	371
19.237	676	19.263	385
19.288	669	19.314	409
19.339	650	19.364	441
19.390	623	19.415	478
19.440	589	19.465	520
19.491	548	19.517	564
19.541	504	19.567	607
19.592	458	19.618	648
19.643	414	19.668	683
19.694	374	19.719	712
19.744	340	19.770	733
19.795	314	19.821	742
19.845	297	19.871	742
19.897	290	19.922	734
19.947	293	19.972	715
19.998	305	20.024	689
20.048	328	20.074	654
20.099	358	20.125	616
20.150	395	20.175	572
20.201	436	20.226	528
20.251	480	20.276	484
20.302	523	20.328	445
20.352	567	20.378	411
20.403	603	20.429	385
20.454	633	20.479	369
20.505	655	20.530	363
20.555	666	20.581	368
20.606	668	20.632	382
20.656	661	20.682	406
20.708	643	20.733	437
20.758	615	20.783	477
20.809	582	20.835	520
20.859	543	20.885	564
20.910	500	20.936	608
20.961	457	20.986	650
21.012	415	21.037	686
21.062	377	21.088	715
21.113	345	21.139	736
21.163	319	21.189	745
21.214	304	21.240	746
21.265	298	21.290	737
21.316	301	21.341	718
21.366	314	21.392	690
21.417	336	21.443	656
21.467	365	21.493	616
21.519	401	21.544	572
21.569	442	21.594	527
21.620	484	21.646	483
21.670	527	21.696	443
21.721	564	21.747	409
21.772	600	21.797	382
21.823	628	21.848	366
21.873	648	21.899	361
21.924	658	21.950	365
21.974	660	22.000	378
22.025	652	22.051	404
22.076	633	22.101	436
22.127	607	22.152	475
22.177	575	22.203	518
22.228	537	22.254	563
22.278	496	22.304	608
22.330	454	22.355	650
22.380	414	22.405	686
22.431	378	22.457	716
22.481	347	22.507	737
22.532	324	22.558	748
22.583	311	22.608	747
22.634	306	22.659	739
22.684	309	22.710	719
22.735	323	22.761	693
22.785	344	22.811	658
22.836	373	22.862	617
22.887	409	22.912	573
22.938	447	22.963	528
22.988	487	23.014	483
23.039	527	23.065	443
23.089	565	23.115	408
23.141	599	23.166	381
23.191	625	23.216	364
23.242	643	23.268	355
23.292	652	23.318	361
23.343	651	23.369	375
23.394	643	23.419	401
23.445	625	23.470	434
23.495	598	23.521	473
23.546	566	23.572	516
23.596	529	23.622	562
23.648	490	23.673	607
23.698	450	23.723	649
23.749	412	23.774	686
23.799	378	23.825	716
23.850	349	23.876	737
23.900	328	23.926	749
23.952	316	23.977	749
24.002	312	24.027	741
24.053	317	24.079	722
24.103	331	24.129	695
24.154	354	24.180	659
24.205	383	24.230	620
24.256	417	24.281	575
24.306	454	24.332	530
24.357	493	24.383	485
24.407	532	24.433	443
24.459	567	24.484	408
24.509	599	24.534	381
24.560	623	24.585	363
24.610	639	24.636	357
24.661	646	24.687	360
24.711	645	24.737	375
24.763	635	24.788	399
24.813	616	24.838	431
24.864	590	24.890	470
24.914	557	24.940	514
24.965	522	24.991	559
25.016	482	25.041	605
25.067	444	25.092	647
25.117	410	25.143	685
25.168	376	25.194	715
25.218	350	25.244	737
25.270	331	25.295	749
25.320	321	25.345	749
25.371	318	25.396	742
25.421	325	25.447	724
25.472	339	25.498	697
25.522	362	25.548	662
25.574	392	25.599	622
25.624	425	25.649	577
25.675	463	25.701	532
25.725	499	25.751	487
25.776	536	25.802	446
25.827	570	25.852	410
25.878	599	25.903	382
25.928	622	25.954	363
25.979	635	26.005	357
26.029	642	26.055	361
26.081	639	26.106	371
26.131	627	26.156	396
26.182	608	26.208	429
26.232	580	26.258	467
26.283	550	26.309	511
26.333	514	26.359	556
26.385	476	26.410	602
26.435	439	26.460	644
26.486	404	26.512	682
26.536	373	26.562	712
26.587	350	26.613	735
26.638	332	26.663	747
26.689	324	26.714	749
26.739	323	26.765	741
26.790	330	26.816	724
26.840	347	26.866	696
26.892	370	26.917	664
26.942	400	26.967	624
26.993	433	27.019	580
27.043	469	27.069	534
27.094	508	27.120	490
27.144	542	27.170	448
27.196	574	27.221	412
27.246	602	27.271	384
27.297	622	27.323	365
27.347	633	27.373	358
27.398	638	27.424	361
27.449	634	27.474	372
27.500	620	27.525	396
27.550	600	27.576	427
27.601	573	27.627	465
27.651	541	27.677	508
27.703	506	27.728	552
27.753	469	27.778	598
27.804	432	27.830	640
27.854	399	27.880	678
27.905	370	27.931	709
27.955	348	27.981	732
28.007	333	28.032	744
28.057	326	28.082	748
28.108	326	28.134	740
28.158	336	28.184	723
28.209	354	28.235	698
28.260	379	28.285	665
28.311	406	28.336	626
28.361	441	28.387	582
28.412	476	28.438	537
28.462	514	28.488	493
28.514	548	28.539	453
28.564	579	28.589	416
28.615	605	28.641	389
28.665	623	28.691	368
28.716	633	28.742	360
28.766	636	28.792	361
28.818	632	28.843	373
28.869	615	28.893	395
28.919	594	28.945	426
28.970	566	28.995	463
29.020	531	29.046	505
29.072	497	29.096	550
29.122	460	29.147	594
29.173	426	29.198	637
29.223	393	29.249	673
29.274	366	29.299	705
29.325	345	29.350	729
29.376	332	29.400	740
29.426	327	29.452	744
29.477	329	29.502	737
29.527	341	29.553	722
29.579	360	29.603	697
29.629	384	29.654	665
29.680	414	29.704	627
29.730	450	29.756	585
29.781	485	29.806	540
29.831	522	29.857	497
29.883	555	29.907	456
29.933	585	29.958	420
29.984	608	30.009	391
30.034	625	30.060	372
30.085	634	30.110	364
30.136	635	30.161	365
30.187	628	30.211	376
30.237	611	30.263	397
30.288	587	30.313	426
30.338	559	30.364	462
30.390	525	30.414	503
30.440	490	30.465	546
30.491	453	30.515	590
30.541	419	30.567	632
30.592	388	30.617	668
30.642	362	30.668	700
30.694	342	30.718	725
30.744	331	30.769	736
30.795	327	30.820	740
30.845	330	30.871	735
30.896	344	30.921	720
30.947	364	30.972	696
30.998	390	31.022	665
31.048	422	31.074	627
31.099	456	31.124	586
31.149	492	31.175	543
31.201	528	31.225	500
31.251	561	31.276	460
31.302	590	31.326	425
31.352	613	31.378	398
31.403	629	31.428	377
31.453	635	31.479	368
31.505	633	31.529	369
31.555	625	31.580	378
31.606	608	31.631	399
31.656	583	31.682	427
31.707	552	31.732	462
31.758	518	31.783	501
31.809	483	31.834	544
31.859	447	31.885	587
31.910	413	31.936	628
31.960	382	31.986	664
32.012	356	32.037	696
32.062	338	32.087	718
32.113	328	32.139	731
32.163	326	32.189	735
32.214	332	32.240	730
32.264	345	32.290	716
32.316	368	32.341	694
32.366	395	32.391	663
32.417	428	32.443	626
32.467	463	32.493	587
32.518	499	32.544	544
32.569	535	32.594	504
32.620	568	32.645	463
32.670	595	32.696	430
32.721	618	32.747	401
32.771	631	32.797	382
32.823	637	32.848	374
32.873	635	32.898	374
32.924	624	32.950	380
32.974	606	33.000	403
33.025	580	33.051	429
33.075	547	33.101	463
33.127	513	33.152	501
33.177	477	33.202	543
33.228	441	33.254	584
33.278	407	33.304	624
33.329	376	33.355	659
33.380	352	33.405	688
33.431	335	33.456	711
33.481	326	33.507	725
33.532	324	33.558	728
33.582	332	33.608	725
33.634	347	33.659	711
33.684	370	33.709	689
33.735	399	33.761	660
33.785	431	33.811	625
33.836	468	33.862	586
33.886	505	33.912	546
33.938	541	33.963	506
33.988	573	34.013	468
34.039	601	34.065	433
34.089	622	34.115	407
34.140	635	34.166	389
34.191	640	34.216	379
34.242	637	34.267	379
34.292	624	34.318	387
34.343	604	34.369	406
34.393	576	34.419	433
34.445	545	34.470	465
34.495	509	34.520	502
34.546	472	34.572	542
34.596	435	34.622	581
34.647	401	34.673	619
34.697	371	34.723	654
34.749	347	34.774	684
34.799	330	34.824	705
34.850	322	34.876	718
34.900	323	34.926	722
34.951	331	34.977	719
35.002	347	35.027	705
35.053	371	35.078	685
35.104	401	35.129	657
35.154	435	35.180	622
35.205	472	35.230	587
35.256	510	35.281	547
35.307	546	35.331	507
35.357	579	35.383	471
35.408	606	35.433	439
35.458	627	35.484	412
35.510	639	35.534	395
35.560	644	35.585	385
35.611	640	35.635	385
35.661	625	35.687	393
35.712	603	35.737	411
35.762	576	35.788	437
35.814	543	35.838	469
35.864	506	35.889	504
35.915	468	35.940	542
35.965	431	35.991	580
36.016	396	36.041	617
36.067	366	36.092	650
36.118	342	36.142	678
36.168	327	36.194	699
36.219	319	36.244	712
36.269	319	36.295	715
36.321	328	36.345	712
36.371	347	36.396	699
36.422	372	36.446	679
36.472	402	36.498	652
36.523	437	36.548	620
36.573	475	36.599	584
36.625	513	36.649	547
36.675	550	36.700	509
36.726	583	36.751	473
36.776	610	36.802	442
36.827	630	36.852	418
36.878	641	36.903	402
36.929	646	36.953	392
36.979	640	37.005	392
37.030	626	37.055	400
37.080	604	37.106	418
37.132	575	37.156	442
37.182	541	37.207	472
37.233	504	37.257	507
37.283	465	37.309	542
37.334	428	37.359	580
37.384	392	37.410	615
37.436	362	37.460	648
37.486	338	37.511	673
37.537	322	37.562	694
37.587	316	37.613	705
37.638	317	37.663	709
37.689	327	37.714	705
37.740	346	37.764	693
37.790	371	37.816	673
37.841	403	37.866	647
37.891	439	37.917	616
37.943	477	37.967	582
37.993	516	38.018	545
38.044	553	38.068	508
38.094	586	38.120	475
38.145	614	38.171	447
38.195	634	38.221	423
38.247	646	38.272	407
38.297	648	38.322	399
38.348	643	38.374	399
38.398	628	38.424	408
38.449	606	38.475	425
38.500	575	38.525	448
38.551	541	38.576	479
38.601	503	38.627	511
38.652	464	38.678	546
38.702	426	38.728	582
38.754	390	38.779	614
38.804	360	38.829	646
38.855	336	38.881	670
38.905	320	38.931	688
38.956	313	38.982	699
39.006	314	39.032	702
39.058	325	39.083	698
39.108	343	39.133	686
39.159	369	39.185	666
39.209	402	39.235	641
39.260	439	39.286	611
39.311	478	39.336	577
39.362	517	39.387	544
39.412	555	39.438	509
39.463	589	39.489	478
39.513	617	39.539	449
39.565	637	39.590	427
39.615	649	39.640	413
39.666	652	39.692	406
39.716	645	39.742	406
39.767	631	39.793	416
39.817	607	39.843	433
39.869	577	39.894	455
39.919	542	39.944	483
39.970	503	39.996	516
40.020	463	40.046	549
40.071	425	40.097	583
40.122	388	40.147	615
40.173	358	40.198	643
40.223	334	40.249	667
40.274	318	40.300	683
40.324	310	40.350	693
40.376	312	40.401	695
40.426	323	40.451	691
40.477	342	40.503	678
40.527	370	40.553	659
40.578	402	40.604	635
40.628	438	40.654	605
40.680	478	40.705	573
40.730	518	40.755	540
40.781	555	40.807	506
40.831	590	40.857	478
40.882	618	40.908	452
40.933	638	40.958	430
40.984	651	41.009	418
41.034	654	41.060	412
41.085	647	41.111	413
41.135	632	41.161	423
41.187	608	41.212	440
41.237	578	41.262	462
41.288	543	41.314	490
41.338	503	41.364	522
41.389	464	41.415	553
41.440	424	41.465	586
41.491	388	41.516	615
41.541	357	41.566	641
41.592	332	41.618	665
41.642	316	41.668	679
41.693	310	41.719	688
41.744	310	41.769	690
41.795	323	41.820	684
41.845	341	41.871	671
41.896	367	41.922	651
41.946	400	41.972	627
41.998	437	42.023	599
42.048	477	42.073	567
42.099	518	42.125	535
42.149	556	42.175	505
42.200	590	42.226	476
42.251	619	42.276	451
42.302	640	42.327	433
42.352	651	42.377	422
42.403	655	42.429	417
42.453	649	42.479	420
42.504	634	42.530	430
42.555	611	42.580	447
42.606	578	42.631	470
42.657	543	42.682	497
42.707	505	42.733	526
42.758	465	42.783	558
42.809	425	42.834	588
42.860	389	42.884	616
42.910	357	42.936	644
42.961	333	42.986	662
43.011	316	43.037	676
43.063	309	43.087	683
43.113	310	43.138	684
43.164	320	43.188	676
43.214	339	43.240	663
43.265	367	43.290	643
43.315	399	43.341	619
43.367	436	43.391	591
43.417	476	43.442	562
43.468	516	43.493	531
43.518	554	43.544	501
43.569	589	43.594	474
43.620	618	43.645	452
43.671	639	43.695	435
43.721	652	43.747	425
43.772	655	43.797	422
43.822	650	43.848	425
43.874	634	43.898	437
43.924	611	43.949	454
43.975	581	44.000	477
44.025	546	44.051	503
44.076	507	44.101	534
44.126	467	44.152	563
44.178	427	44.202	592
44.228	390	44.253	620
44.279	358	44.304	645
44.329	333	44.355	662
44.380	316	44.405	674
44.431	309	44.456	680
44.482	310	44.506	679
44.532	319	44.558	671
44.583	339	44.608	657
44.633	365	44.659	637
44.685	397	44.709	612
44.735	434	44.760	585
44.786	474	44.811	555
44.836	514	44.862	525
44.887	553	44.912	496
44.937	588	44.963	471
44.989	617	45.013	450
45.039	639	45.064	436
45.090	651	45.115	427
45.140	655	45.166	426
45.191	650	45.216	431
45.242	634	45.267	443
45.293	612	45.317	461
45.343	582	45.369	484
45.394	547	45.419	512
45.444	508	45.470	540
45.496	468	45.520	569
45.546	428	45.571	598
45.597	393	45.622	624
45.647	360	45.673	646
45.698	336	45.724	663
45.748	318	45.774	673
45.800	310	45.825	678
45.850	311	45.875	675
45.901	320	45.927	666
45.951	338	45.977	651
46.002	363	46.028	630
46.053	396	46.078	604
46.104	433	46.129	577
46.154	472	46.180	548
46.205	512	46.231	519
46.255	550	46.281	493
46.307	585	46.332	468
46.357	614	46.382	449
46.408	637	46.434	436
46.458	648	46.484	429
46.509	652	46.535	430
46.560	649	46.585	435
46.611	634	46.636	449
46.661	613	46.686	467
